 5.0000      19
 5.0200      11
 5.0400      12
 5.0600      10
 5.0800      18
 5.1000      12
 5.1200      14
 5.1400      17
 5.1600      17
 5.1800       8
 5.2000      13
 5.2200       9
 5.2400      11
 5.2600       9
 5.2800      14
 5.3000       8
 5.3200      18
 5.3400       9
 5.3600      15
 5.3800      16
 5.4000       7
 5.4200      11
 5.4400      11
 5.4600       9
 5.4800      18
 5.5000      14
 5.5200      15
 5.5400      16
 5.5600      11
 5.5800      11
 5.6000      11
 5.6200      15
 5.6400      12
 5.6600       2
 5.6800       9
 5.7000      13
 5.7200       8
 5.7400      14
 5.7600      13
 5.7800       9
 5.8000      10
 5.8200      16
 5.8400      11
 5.8600      10
 5.8800      12
 5.9000      15
 5.9200      12
 5.9400      10
 5.9600      12
 5.9800      13
 6.0000       9
 6.0200       9
 6.0400      10
 6.0600      17
 6.0800      15
 6.1000      12
 6.1200      12
 6.1400       7
 6.1600      10
 6.1800      12
 6.2000      13
 6.2200      13
 6.2400      11
 6.2600      11
 6.2800       9
 6.3000      13
 6.3200       9
 6.3400      10
 6.3600       8
 6.3800      12
 6.4000      10
 6.4200      11
 6.4400      18
 6.4600       8
 6.4800      12
 6.5000       9
 6.5200       9
 6.5400      13
 6.5600      11
 6.5800      14
 6.6000      12
 6.6200       5
 6.6400       8
 6.6600       9
 6.6800       9
 6.7000      11
 6.7200      15
 6.7400      11
 6.7600       5
 6.7800       5
 6.8000      16
 6.8200      14
 6.8400       9
 6.8600      11
 6.8800      14
 6.9000      14
 6.9200      15
 6.9400      13
 6.9600      10
 6.9800      14
 7.0000      11
 7.0200       6
 7.0400       9
 7.0600      14
 7.0800      11
 7.1000      13
 7.1200       7
 7.1400       9
 7.1600      11
 7.1800       5
 7.2000       4
 7.2200       7
 7.2400       8
 7.2600      13
 7.2800      14
 7.3000      11
 7.3200      10
 7.3400      11
 7.3600      13
 7.3800       8
 7.4000       7
 7.4200      14
 7.4400       7
 7.4600      13
 7.4800       8
 7.5000      12
 7.5200      10
 7.5400       6
 7.5600       9
 7.5800      11
 7.6000      11
 7.6200      10
 7.6400       7
 7.6600       7
 7.6800       8
 7.7000      13
 7.7200       8
 7.7400      15
 7.7600       7
 7.7800      12
 7.8000       8
 7.8200       4
 7.8400       8
 7.8600       9
 7.8800      14
 7.9000      10
 7.9200      12
 7.9400      10
 7.9600       9
 7.9800       9
 8.0000      10
 8.0200       9
 8.0400       6
 8.0600      13
 8.0800      11
 8.1000      11
 8.1200      11
 8.1400      12
 8.1600       5
 8.1800      10
 8.2000      11
 8.2200       8
 8.2400       8
 8.2600       9
 8.2800      13
 8.3000       5
 8.3200       9
 8.3400       9
 8.3600       9
 8.3800      10
 8.4000       6
 8.4200      12
 8.4400      13
 8.4600      14
 8.4800      13
 8.5000      10
 8.5200      10
 8.5400       7
 8.5600      13
 8.5800       9
 8.6000      14
 8.6200      10
 8.6400      13
 8.6600      16
 8.6800      12
 8.7000       7
 8.7200       6
 8.7400       9
 8.7600       8
 8.7800       8
 8.8000      12
 8.8200      11
 8.8400      13
 8.8600       7
 8.8800      12
 8.9000      10
 8.9200      14
 8.9400      10
 8.9600       9
 8.9800       6
 9.0000       7
 9.0200      12
 9.0400       6
 9.0600       9
 9.0800       8
 9.1000       8
 9.1200      11
 9.1400       8
 9.1600      10
 9.1800      16
 9.2000      10
 9.2200       5
 9.2400      13
 9.2600      10
 9.2800      13
 9.3000       6
 9.3200      12
 9.3400       8
 9.3600      10
 9.3800       6
 9.4000       8
 9.4200      10
 9.4400       9
 9.4600      10
 9.4800      11
 9.5000       9
 9.5200       9
 9.5400       8
 9.5600       8
 9.5800      12
 9.6000       9
 9.6200      14
 9.6400       7
 9.6600       9
 9.6800       8
 9.7000       6
 9.7200      11
 9.7400      12
 9.7600       9
 9.7800      10
 9.8000      14
 9.8200      15
 9.8400       7
 9.8600      11
 9.8800       8
 9.9000      12
 9.9200       7
 9.9400       5
 9.9600      12
 9.9800       9
10.0000       7
10.0200      13
10.0400       9
10.0600      10
10.0800      11
10.1000       5
10.1200      12
10.1400       7
10.1600       6
10.1800       7
10.2000      10
10.2200       9
10.2400       6
10.2600       8
10.2800      15
10.3000       9
10.3200      13
10.3400      11
10.3600      13
10.3800      11
10.4000       8
10.4200      10
10.4400       8
10.4600       7
10.4800      12
10.5000      10
10.5200       9
10.5400       9
10.5600      14
10.5800       7
10.6000       8
10.6200       7
10.6400       9
10.6600       9
10.6800      10
10.7000      12
10.7200       6
10.7400       7
10.7600       7
10.7800      10
10.8000       5
10.8200       9
10.8400      10
10.8600       9
10.8800      10
10.9000       8
10.9200      10
10.9400       5
10.9600       8
10.9800       9
11.0000       9
11.0200      12
11.0400       9
11.0600      12
11.0800      10
11.1000       7
11.1200      11
11.1400      13
11.1600       9
11.1800      13
11.2000       7
11.2200      15
11.2400      12
11.2600      11
11.2800       6
11.3000       9
11.3200      14
11.3400       8
11.3600       6
11.3800       7
11.4000      12
11.4200      12
11.4400       8
11.4600       5
11.4800       8
11.5000      10
11.5200      10
11.5400       8
11.5600       7
11.5800      12
11.6000      10
11.6200       9
11.6400       9
11.6600       9
11.6800       8
11.7000      17
11.7200       7
11.7400      10
11.7600       5
11.7800      12
11.8000      10
11.8200      10
11.8400       8
11.8600      12
11.8800      13
11.9000      11
11.9200      13
11.9400      10
11.9600       6
11.9800       9
12.0000      11
12.0200      11
12.0400      13
12.0600      14
12.0800       7
12.1000      11
12.1200      15
12.1400      13
12.1600      11
12.1800       7
12.2000      13
12.2200      11
12.2400       9
12.2600      12
12.2800      20
12.3000       9
12.3200      20
12.3400      11
12.3600      16
12.3800      14
12.4000      18
12.4200      12
12.4400      18
12.4600      21
12.4800      18
12.5000      22
12.5200      18
12.5400      21
12.5600      29
12.5800      33
12.6000      41
12.6200      40
12.6400      43
12.6600      63
12.6800      57
12.7000      64
12.7200      78
12.7400      87
12.7600     102
12.7800     101
12.8000      87
12.8200      88
12.8400      73
12.8600      60
12.8800      65
12.9000      52
12.9200      47
12.9400      27
12.9600      35
12.9800      27
13.0000      26
13.0200      31
13.0400      18
13.0600      21
13.0800      20
13.1000      24
13.1200      18
13.1400      14
13.1600      20
13.1800       8
13.2000      17
13.2200      10
13.2400      10
13.2600      12
13.2800      15
13.3000      18
13.3200      10
13.3400      13
13.3600      10
13.3800      10
13.4000      13
13.4200      14
13.4400      14
13.4600      10
13.4800      13
13.5000       6
13.5200      19
13.5400       9
13.5600      12
13.5800       8
13.6000       6
13.6200       7
13.6400      11
13.6600      11
13.6800      14
13.7000      19
13.7200       9
13.7400       7
13.7600      13
13.7800       9
13.8000      10
13.8200       6
13.8400       9
13.8600      10
13.8800       8
13.9000       8
13.9200       7
13.9400       4
13.9600       3
13.9800       5
14.0000      19
14.0200       6
14.0400       5
14.0600       4
14.0800       8
14.1000       8
14.1200       8
14.1400       9
14.1600       5
14.1800       9
14.2000       8
14.2200       9
14.2400       7
14.2600       9
14.2800      12
14.3000       4
14.3200      14
14.3400       9
14.3600      11
14.3800       4
14.4000       8
14.4200       8
14.4400       9
14.4600      10
14.4800       9
14.5000      13
14.5200       6
14.5400       6
14.5600      13
14.5800       8
14.6000      12
14.6200       6
14.6400       6
14.6600      13
14.6800       8
14.7000      12
14.7200      11
14.7400      11
14.7600       4
14.7800       8
14.8000      11
14.8200      13
14.8400      11
14.8600       9
14.8800      13
14.9000       9
14.9200       9
14.9400      11
14.9600      12
14.9800      10
15.0000       7
15.0200      11
15.0400       7
15.0600      12
15.0800       6
15.1000       8
15.1200      11
15.1400      11
15.1600       9
15.1800       9
15.2000       8
15.2200       8
15.2400      19
15.2600       7
15.2800       6
15.3000       8
15.3200       9
15.3400       7
15.3600      12
15.3800      13
15.4000       9
15.4200      12
15.4400       9
15.4600      12
15.4800       9
15.5000      11
15.5200       5
15.5400       7
15.5600       9
15.5800      11
15.6000       6
15.6200      10
15.6400       9
15.6600      10
15.6800       8
15.7000       6
15.7200       5
15.7400       8
15.7600       4
15.7800       7
15.8000      17
15.8200      13
15.8400       4
15.8600      13
15.8800       9
15.9000      14
15.9200       6
15.9400      11
15.9600      11
15.9800      12
16.0000       7
16.0200       8
16.0400       9
16.0600      11
16.0800       8
16.1000       8
16.1200      12
16.1400      10
16.1600      14
16.1800      10
16.2000      13
16.2200       6
16.2400       6
16.2600       9
16.2800       9
16.3000      12
16.3200       9
16.3400       8
16.3600      10
16.3800       9
16.4000      11
16.4200       7
16.4400       7
16.4600      13
16.4800      10
16.5000      10
16.5200       6
16.5400      13
16.5600      15
16.5800       8
16.6000      11
16.6200      11
16.6400      12
16.6600      14
16.6800      10
16.7000      16
16.7200      11
16.7400       9
16.7600       8
16.7800      12
16.8000       9
16.8200      11
16.8400      16
16.8600       7
16.8800      18
16.9000      14
16.9200      11
16.9400       8
16.9600       9
16.9800       8
17.0000      14
17.0200       8
17.0400       4
17.0600       7
17.0800      11
17.1000      13
17.1200      13
17.1400       8
17.1600       6
17.1800      15
17.2000      14
17.2200      14
17.2400      16
17.2600      13
17.2800      10
17.3000      11
17.3200      16
17.3400      12
17.3600      13
17.3800      10
17.4000      20
17.4200      12
17.4400      12
17.4600      12
17.4800      14
17.5000      17
17.5200      16
17.5400      14
17.5600      19
17.5800      10
17.6000      22
17.6200      17
17.6400      14
17.6600      11
17.6800      18
17.7000      17
17.7200      20
17.7400      24
17.7600      25
17.7800      27
17.8000      17
17.8200      18
17.8400      23
17.8600      34
17.8800      32
17.9000      43
17.9200      46
17.9400      50
17.9600      69
17.9800      60
18.0000      43
18.0200      73
18.0400      92
18.0600     124
18.0800      94
18.1000      93
18.1200     124
18.1400      78
18.1600      79
18.1800      76
18.2000      56
18.2200      64
18.2400      64
18.2600      62
18.2800      48
18.3000      45
18.3200      38
18.3400      43
18.3600      36
18.3800      36
18.4000      32
18.4200      26
18.4400      20
18.4600      29
18.4800      26
18.5000      25
18.5200      21
18.5400      26
18.5600      19
18.5800      23
18.6000      21
18.6200      17
18.6400      18
18.6600      18
18.6800      25
18.7000      17
18.7200      23
18.7400      25
18.7600      11
18.7800      13
18.8000      15
18.8200      19
18.8400      18
18.8600      16
18.8800      25
18.9000      19
18.9200       9
18.9400      16
18.9600      11
18.9800      15
19.0000      17
19.0200      15
19.0400      19
19.0600      18
19.0800      14
19.1000      14
19.1200      16
19.1400      13
19.1600      12
19.1800      13
19.2000      15
19.2200      18
19.2400      19
19.2600      14
19.2800      16
19.3000      19
19.3200      14
19.3400      12
19.3600       9
19.3800       9
19.4000       7
19.4200      16
19.4400      14
19.4600      13
19.4800      11
19.5000      15
19.5200      14
19.5400      13
19.5600      12
19.5800       9
19.6000      11
19.6200      15
19.6400      11
19.6600      16
19.6800       7
19.7000      22
19.7200      11
19.7400      13
19.7600      10
19.7800      14
19.8000      10
19.8200      13
19.8400      12
19.8600      10
19.8800       4
19.9000      13
19.9200      11
19.9400       9
19.9600      11
19.9800      13
20.0000      10
20.0200      11
20.0400      11
20.0600      11
20.0800      11
20.1000       7
20.1200       8
20.1400      10
20.1600       9
20.1800      12
20.2000       8
20.2200       9
20.2400       9
20.2600      10
20.2800       6
20.3000       6
20.3200       6
20.3400      12
20.3600      14
20.3800      19
20.4000      11
20.4200       9
20.4400       9
20.4600      11
20.4800      11
20.5000       9
20.5200       7
20.5400      12
20.5600      19
20.5800      11
20.6000      11
20.6200      10
20.6400       8
20.6600       6
20.6800      14
20.7000      14
20.7200      14
20.7400      12
20.7600       9
20.7800      12
20.8000      13
20.8200      11
20.8400       8
20.8600      11
20.8800       9
20.9000      12
20.9200       9
20.9400       9
20.9600      12
20.9800      11
21.0000      14
21.0200      10
21.0400      11
21.0600       9
21.0800       6
21.1000       9
21.1200      11
21.1400      15
21.1600       8
21.1800       8
21.2000      13
21.2200      16
21.2400       8
21.2600       7
21.2800      11
21.3000       8
21.3200      12
21.3400      10
21.3600      11
21.3800      11
21.4000      10
21.4200       9
21.4400       6
21.4600      10
21.4800      10
21.5000      16
21.5200      11
21.5400       8
21.5600       6
21.5800       8
21.6000       9
21.6200       9
21.6400      11
21.6600       6
21.6800       9
21.7000      12
21.7200      17
21.7400       9
21.7600      13
21.7800       7
21.8000       5
21.8200       4
21.8400       5
21.8600       7
21.8800       8
21.9000       9
21.9200       9
21.9400       7
21.9600      12
21.9800       9
22.0000      12
22.0200       6
22.0400       8
22.0600      10
22.0800       8
22.1000      11
22.1200      15
22.1400       9
22.1600      12
22.1800       6
22.2000      10
22.2200      15
22.2400      12
22.2600      11
22.2800      11
22.3000       8
22.3200      11
22.3400      11
22.3600      14
22.3800      10
22.4000       9
22.4200       2
22.4400      11
22.4600      12
22.4800       7
22.5000       9
22.5200      10
22.5400       8
22.5600      19
22.5800      12
22.6000      13
22.6200      16
22.6400       9
22.6600       9
22.6800      10
22.7000      11
22.7200       9
22.7400      12
22.7600      16
22.7800       5
22.8000      11
22.8200      10
22.8400       9
22.8600      12
22.8800      11
22.9000       7
22.9200      15
22.9400      11
22.9600      13
22.9800       7
23.0000      12
23.0200       9
23.0400      14
23.0600      15
23.0800       5
23.1000      12
23.1200       6
23.1400      14
23.1600      11
23.1800      13
23.2000       9
23.2200      10
23.2400       9
23.2600       9
23.2800      12
23.3000      11
23.3200       5
23.3400      15
23.3600       8
23.3800       8
23.4000      11
23.4200       8
23.4400       6
23.4600       4
23.4800      16
23.5000       3
23.5200       9
23.5400       6
23.5600       5
23.5800       9
23.6000       5
23.6200      13
23.6400       5
23.6600      14
23.6800      10
23.7000      15
23.7200      15
23.7400       8
23.7600      11
23.7800       6
23.8000       7
23.8200       8
23.8400       6
23.8600      17
23.8800       7
23.9000       3
23.9200      14
23.9400       3
23.9600      12
23.9800       1
24.0000       7
24.0200       9
24.0400       6
24.0600       9
24.0800      10
24.1000       8
24.1200      11
24.1400       6
24.1600      10
24.1800      12
24.2000       9
24.2200       8
24.2400       9
24.2600      15
24.2800      12
24.3000       7
24.3200       9
24.3400      10
24.3600       9
24.3800      10
24.4000      13
24.4200       7
24.4400      10
24.4600      12
24.4800       7
24.5000      10
24.5200      11
24.5400       5
24.5600       9
24.5800       7
24.6000      15
24.6200      13
24.6400      11
24.6600       9
24.6800       7
24.7000      15
24.7200      17
24.7400      11
24.7600       8
24.7800      22
24.8000      15
24.8200       8
24.8400       4
24.8600      11
24.8800       5
24.9000      13
24.9200      10
24.9400       9
24.9600       4
24.9800      19
25.0000       9
25.0200      10
25.0400       6
25.0600       8
25.0800      20
25.1000      16
25.1200      10
25.1400       9
25.1600       9
25.1800      12
25.2000      16
25.2200       7
25.2400      16
25.2600      18
25.2800       8
25.3000      17
25.3200      12
25.3400      13
25.3600      10
25.3800      10
25.4000      15
25.4200      15
25.4400      12
25.4600      17
25.4800      15
25.5000      13
25.5200      11
25.5400      21
25.5600      23
25.5800      20
25.6000      15
25.6200      19
25.6400      27
25.6600      34
25.6800      22
25.7000      22
25.7200      27
25.7400      18
25.7600      26
25.7800      19
25.8000      13
25.8200      13
25.8400      15
25.8600      16
25.8800      10
25.9000      19
25.9200      19
25.9400      13
25.9600      10
25.9800       9
26.0000      16
26.0200      15
26.0400      15
26.0600       7
26.0800       9
26.1000      11
26.1200      14
26.1400       7
26.1600      12
26.1800       8
26.2000      10
26.2200      13
26.2400       8
26.2600       9
26.2800      10
26.3000       8
26.3200      10
26.3400       7
26.3600       9
26.3800      12
26.4000       8
26.4200      10
26.4400      14
26.4600      11
26.4800       8
26.5000      12
26.5200      11
26.5400      13
26.5600       9
26.5800      13
26.6000      10
26.6200      11
26.6400       5
26.6600      13
26.6800      11
26.7000       7
26.7200      11
26.7400      16
26.7600      11
26.7800      10
26.8000       8
26.8200      13
26.8400      11
26.8600      11
26.8800      14
26.9000      12
26.9200      17
26.9400      14
26.9600      11
26.9800      12
27.0000      14
27.0200      13
27.0400      16
27.0600      13
27.0800      11
27.1000      15
27.1200      22
27.1400      10
27.1600      10
27.1800      14
27.2000      15
27.2200      15
27.2400      11
27.2600      19
27.2800       7
27.3000      10
27.3200      14
27.3400      17
27.3600      13
27.3800      17
27.4000      13
27.4200      13
27.4400      17
27.4600      12
27.4800      12
27.5000      13
27.5200      22
27.5400      14
27.5600      21
27.5800      15
27.6000      17
27.6200      23
27.6400      17
27.6600      18
27.6800      13
27.7000      13
27.7200      17
27.7400      14
27.7600      18
27.7800      18
27.8000      17
27.8200      13
27.8400      16
27.8600      21
27.8800      13
27.9000      19
27.9200      23
27.9400      16
27.9600      24
27.9800      19
28.0000      19
28.0200      21
28.0400      25
28.0600      23
28.0800      19
28.1000      29
28.1200      20
28.1400      18
28.1600      26
28.1800      22
28.2000      17
28.2200      30
28.2400      30
28.2600      35
28.2800      22
28.3000      32
28.3200      27
28.3400      42
28.3600      31
28.3800      31
28.4000      41
28.4200      40
28.4400      38
28.4600      40
28.4800      45
28.5000      58
28.5200      55
28.5400      41
28.5600      51
28.5800      68
28.6000      61
28.6200      84
28.6400     104
28.6600      84
28.6800     120
28.7000     124
28.7200     164
28.7400     158
28.7600     162
28.7800     171
28.8000     151
28.8200     126
28.8400     126
28.8600     120
28.8800      99
28.9000      88
28.9200      72
28.9400      82
28.9600      74
28.9800      53
29.0000      37
29.0200      45
29.0400      46
29.0600      43
29.0800      40
29.1000      36
29.1200      25
29.1400      36
29.1600      41
29.1800      34
29.2000      27
29.2200      19
29.2400      25
29.2600      22
29.2800      29
29.3000      30
29.3200      23
29.3400      23
29.3600      23
29.3800      24
29.4000      19
29.4200      20
29.4400      22
29.4600      19
29.4800      25
29.5000      19
29.5200      18
29.5400      16
29.5600      16
29.5800      22
29.6000      19
29.6200       9
29.6400      15
29.6600      17
29.6800      20
29.7000      19
29.7200      17
29.7400      21
29.7600      22
29.7800       8
29.8000      17
29.8200      12
29.8400      16
29.8600       8
29.8800      17
29.9000       9
29.9200      15
29.9400      14
29.9600      17
29.9800      22
30.0000      14
30.0200      15
30.0400      17
30.0600      10
30.0800      15
30.1000      13
30.1200       9
30.1400      11
30.1600      13
30.1800      14
30.2000      13
30.2200      16
30.2400      12
30.2600      12
30.2800      10
30.3000      13
30.3200      14
30.3400      14
30.3600       9
30.3800      11
30.4000      10
30.4200      15
30.4400       8
30.4600       8
30.4800       9
30.5000      13
30.5200      10
30.5400       8
30.5600      15
30.5800      13
30.6000       5
30.6200       6
30.6400      13
30.6600      10
30.6800      10
30.7000       8
30.7200       8
30.7400       9
30.7600       8
30.7800       8
30.8000      11
30.8200      10
30.8400      13
30.8600      10
30.8800       6
30.9000       7
30.9200      11
30.9400      11
30.9600       5
30.9800       8
31.0000       5
31.0200       9
31.0400       9
31.0600       7
31.0800      11
31.1000       6
31.1200      12
31.1400      11
31.1600       9
31.1800       4
31.2000      12
31.2200      12
31.2400      12
31.2600       8
31.2800       9
31.3000      14
31.3200       9
31.3400       8
31.3600       9
31.3800       4
31.4000       7
31.4200       9
31.4400       7
31.4600       6
31.4800      11
31.5000       6
31.5200      11
31.5400       9
31.5600       8
31.5800      10
31.6000      13
31.6200      11
31.6400      11
31.6600       9
31.6800      11
31.7000      10
31.7200      12
31.7400      10
31.7600      11
31.7800      12
31.8000      12
31.8200       6
31.8400       4
31.8600       5
31.8800       4
31.9000       8
31.9200       4
31.9400       8
31.9600       6
31.9800       9
32.0000       6
32.0200      14
32.0400       5
32.0600       7
32.0800       7
32.1000       7
32.1200      12
32.1400      10
32.1600       5
32.1800       9
32.2000      13
32.2200       5
32.2400      11
32.2600       6
32.2800      11
32.3000       7
32.3200       7
32.3400       9
32.3600       5
32.3800       9
32.4000       8
32.4200       5
32.4400      12
32.4600       9
32.4800       5
32.5000       8
32.5200      10
32.5400       9
32.5600      11
32.5800      13
32.6000       8
32.6200       5
32.6400      11
32.6600      11
32.6800       8
32.7000       7
32.7200      14
32.7400       3
32.7600       7
32.7800       8
32.8000      11
32.8200      11
32.8400       6
32.8600       7
32.8800       9
32.9000      10
32.9200       8
32.9400       9
32.9600       7
32.9800       7
33.0000       4
33.0200       8
33.0400       7
33.0600       7
33.0800       6
33.1000       5
33.1200       7
33.1400       7
33.1600      14
33.1800       8
33.2000       9
33.2200       8
33.2400      10
33.2600      11
33.2800       7
33.3000      12
33.3200       4
33.3400       8
33.3600      10
33.3800      11
33.4000       7
33.4200       5
33.4400       8
33.4600       9
33.4800      11
33.5000       4
33.5200       4
33.5400      10
33.5600       7
33.5800       5
33.6000       8
33.6200       7
33.6400       6
33.6600       8
33.6800       9
33.7000       9
33.7200      10
33.7400      11
33.7600       7
33.7800       9
33.8000       8
33.8200       4
33.8400       5
33.8600       8
33.8800       5
33.9000       4
33.9200       7
33.9400      11
33.9600       4
33.9800       9
34.0000       9
34.0200       7
34.0400      11
34.0600       6
34.0800       7
34.1000       9
34.1200       5
34.1400       8
34.1600      10
34.1800       6
34.2000      14
34.2200       4
34.2400       8
34.2600       8
34.2800       8
34.3000       9
34.3200       7
34.3400       9
34.3600      11
34.3800      10
34.4000       8
34.4200       9
34.4400       7
34.4600      10
34.4800       4
34.5000       7
34.5200       9
34.5400       5
34.5600       7
34.5800      14
34.6000       8
34.6200       9
34.6400      12
34.6600       8
34.6800       6
34.7000       8
34.7200       7
34.7400      10
34.7600      11
34.7800      12
34.8000       6
34.8200       9
34.8400       8
34.8600      10
34.8800       5
34.9000       6
34.9200       8
34.9400       6
34.9600      14
34.9800       7
35.0000       8
35.0200      12
35.0400       9
35.0600       8
35.0800       6
35.1000       9
35.1200       8
35.1400      12
35.1600      12
35.1800      11
35.2000       7
35.2200       7
35.2400       7
35.2600       8
35.2800       9
35.3000       5
35.3200      11
35.3400       8
35.3600      15
35.3800       8
35.4000       9
35.4200       9
35.4400       8
35.4600      12
35.4800      11
35.5000      12
35.5200       9
35.5400       9
35.5600       7
35.5800      13
35.6000      12
35.6200      10
35.6400       7
35.6600      15
35.6800      12
35.7000      11
35.7200      14
35.7400      12
35.7600      14
35.7800      10
35.8000      14
35.8200      16
35.8400       6
35.8600       8
35.8800      11
35.9000       7
35.9200       9
35.9400      12
35.9600      14
35.9800      14
36.0000       8
36.0200      15
36.0400      16
36.0600      17
36.0800      17
36.1000      11
36.1200      12
36.1400      11
36.1600       8
36.1800      16
36.2000      16
36.2200      13
36.2400      16
36.2600      18
36.2800      18
36.3000      14
36.3200      26
36.3400      19
36.3600      27
36.3800      16
36.4000      24
36.4200      19
36.4400      21
36.4600      23
36.4800      25
36.5000      33
36.5200      32
36.5400      35
36.5600      34
36.5800      37
36.6000      35
36.6200      35
36.6400      35
36.6600      33
36.6800      36
36.7000      33
36.7200      33
36.7400      15
36.7600      25
36.7800      26
36.8000      16
36.8200      14
36.8400      12
36.8600      21
36.8800      10
36.9000      15
36.9200      12
36.9400      15
36.9600      16
36.9800      17
37.0000      19
37.0200      12
37.0400      13
37.0600      17
37.0800       9
37.1000      18
37.1200      13
37.1400      13
37.1600      10
37.1800      12
37.2000      18
37.2200      12
37.2400      19
37.2600      12
37.2800      18
37.3000      18
37.3200      15
37.3400      13
37.3600      25
37.3800      20
37.4000      25
37.4200      29
37.4400      26
37.4600      39
37.4800      55
37.5000      47
37.5200      51
37.5400      55
37.5600      46
37.5800      46
37.6000      52
37.6200      52
37.6400      38
37.6600      47
37.6800      32
37.7000      28
37.7200      31
37.7400      23
37.7600      24
37.7800      14
37.8000      22
37.8200      13
37.8400      13
37.8600      22
37.8800      16
37.9000      12
37.9200       7
37.9400      11
37.9600       7
37.9800      13
38.0000      13
38.0200      11
38.0400       9
38.0600       5
38.0800       8
38.1000      10
38.1200      14
38.1400       9
38.1600      12
38.1800       7
38.2000       7
38.2200      17
38.2400      14
38.2600       8
38.2800       6
38.3000       6
38.3200       8
38.3400       6
38.3600      12
38.3800       9
38.4000      11
38.4200       7
38.4400      10
38.4600      14
38.4800       7
38.5000       8
38.5200       7
38.5400      10
38.5600      13
38.5800       8
38.6000      12
38.6200      10
38.6400       8
38.6600      12
38.6800      14
38.7000      11
38.7200      19
38.7400      18
38.7600      10
38.7800      14
38.8000      15
38.8200      17
38.8400      26
38.8600      26
38.8800      19
38.9000      19
38.9200      21
38.9400      20
38.9600      26
38.9800      24
39.0000      22
39.0200      17
39.0400      21
39.0600      22
39.0800      14
39.1000      18
39.1200      16
39.1400      11
39.1600      10
39.1800      10
39.2000      11
39.2200       6
39.2400       8
39.2600      12
39.2800       8
39.3000      10
39.3200       6
39.3400       7
39.3600       6
39.3800       7
39.4000       8
39.4200      10
39.4400       9
39.4600       4
39.4800      10
39.5000       9
39.5200       7
39.5400      10
39.5600      10
39.5800       7
39.6000       7
39.6200       9
39.6400       8
39.6600      10
39.6800       7
39.7000       9
39.7200       8
39.7400       8
39.7600       7
39.7800       8
39.8000       7
39.8200       9
39.8400       3
39.8600       8
39.8800      10
39.9000       7
39.9200       9
39.9400      12
39.9600       1
39.9800       6
40.0000       8
40.0200       8
40.0400      11
40.0600      10
40.0800       9
40.1000       6
40.1200       5
40.1400       9
40.1600       5
40.1800      13
40.2000       2
40.2200      10
40.2400       7
40.2600       6
40.2800       9
40.3000       7
40.3200      11
40.3400       9
40.3600      14
40.3800       7
40.4000       7
40.4200       9
40.4400       7
40.4600       4
40.4800       8
40.5000       6
40.5200       5
40.5400      10
40.5600       9
40.5800       7
40.6000      11
40.6200      11
40.6400       9
40.6600      10
40.6800      11
40.7000      10
40.7200       8
40.7400      11
40.7600      11
40.7800      13
40.8000      11
40.8200       8
40.8400      12
40.8600      10
40.8800      10
40.9000      10
40.9200      13
40.9400      19
40.9600      13
40.9800      21
41.0000      21
41.0200      23
41.0400      27
41.0600      28
41.0800      24
41.1000      23
41.1200      31
41.1400      20
41.1600      25
41.1800      19
41.2000      17
41.2200      16
41.2400      13
41.2600      14
41.2800      20
41.3000      19
41.3200      14
41.3400      15
41.3600      13
41.3800      11
41.4000      10
41.4200       9
41.4400      16
41.4600      16
41.4800       5
41.5000      14
41.5200       6
41.5400       9
41.5600      11
41.5800      14
41.6000       9
41.6200       8
41.6400      16
41.6600       9
41.6800      12
41.7000      11
41.7200      17
41.7400       6
41.7600      12
41.7800      14
41.8000      18
41.8200      20
41.8400      24
41.8600      21
41.8800      19
41.9000      33
41.9200      27
41.9400      24
41.9600      26
41.9800      27
42.0000      28
42.0200      24
42.0400      27
42.0600      22
42.0800      25
42.1000      27
42.1200      30
42.1400      16
42.1600      12
42.1800      13
42.2000      10
42.2200      12
42.2400       9
42.2600      16
42.2800      11
42.3000       8
42.3200      11
42.3400       5
42.3600       7
42.3800      10
42.4000       6
42.4200       9
42.4400      13
42.4600       9
42.4800       7
42.5000       5
42.5200      13
42.5400       6
42.5600       9
42.5800       4
42.6000       6
42.6200       1
42.6400       7
42.6600       7
42.6800       9
42.7000       8
42.7200      10
42.7400       8
42.7600       4
42.7800       5
42.8000      10
42.8200       4
42.8400      10
42.8600       8
42.8800       6
42.9000       3
42.9200       7
42.9400       8
42.9600       5
42.9800       4
43.0000       8
43.0200      10
43.0400       6
43.0600      11
43.0800      10
43.1000       7
43.1200       4
43.1400       2
43.1600      14
43.1800       4
43.2000       5
43.2200       5
43.2400       6
43.2600       3
43.2800      15
43.3000      11
43.3200       4
43.3400       5
43.3600       7
43.3800       4
43.4000       9
43.4200       8
43.4400      11
43.4600       3
43.4800       5
43.5000       8
43.5200       9
43.5400       7
43.5600       6
43.5800       8
43.6000       7
43.6200      10
43.6400       6
43.6600       7
43.6800       6
43.7000       6
43.7200       7
43.7400       8
43.7600      12
43.7800       7
43.8000       6
43.8200       4
43.8400       5
43.8600       8
43.8800      11
43.9000       6
43.9200       7
43.9400       8
43.9600       5
43.9800       7
44.0000       8
44.0200       8
44.0400       8
44.0600       4
44.0800       8
44.1000      11
44.1200       5
44.1400       6
44.1600       7
44.1800      10
44.2000       8
44.2200       6
44.2400       7
44.2600       6
44.2800       3
44.3000       6
44.3200       7
44.3400       9
44.3600       6
44.3800       4
44.4000       9
44.4200      13
44.4400       6
44.4600       5
44.4800       6
44.5000       6
44.5200       4
44.5400       5
44.5600       8
44.5800      12
44.6000       8
44.6200       5
44.6400       7
44.6600       8
44.6800       4
44.7000       5
44.7200       7
44.7400       8
44.7600       7
44.7800      10
44.8000       6
44.8200       3
44.8400       7
44.8600       7
44.8800       9
44.9000       9
44.9200       6
44.9400       6
44.9600       5
44.9800       7
45.0000      10
45.0200       4
45.0400      11
45.0600      10
45.0800       6
45.1000       7
45.1200       8
45.1400      10
45.1600      14
45.1800      10
45.2000       7
45.2200       7
45.2400       5
45.2600       3
45.2800       4
45.3000       4
45.3200       8
45.3400       8
45.3600      10
45.3800       6
45.4000       7
45.4200      12
45.4400       5
45.4600      12
45.4800      11
45.5000      12
45.5200       7
45.5400      12
45.5600       9
45.5800       2
45.6000       6
45.6200       7
45.6400      11
45.6600      10
45.6800       5
45.7000      10
45.7200       8
45.7400       4
45.7600       4
45.7800       7
45.8000       8
45.8200       7
45.8400       4
45.8600      11
45.8800       8
45.9000       4
45.9200       6
45.9400       6
45.9600       9
45.9800      10
46.0000       8
46.0200       7
46.0400       7
46.0600       7
46.0800       9
46.1000       9
46.1200       7
46.1400       6
46.1600      10
46.1800      10
46.2000       7
46.2200      10
46.2400      11
46.2600       8
46.2800       9
46.3000       4
46.3200      15
46.3400       9
46.3600       8
46.3800       5
46.4000       8
46.4200      10
46.4400       6
46.4600       5
46.4800      13
46.5000      12
46.5200       6
46.5400       9
46.5600      13
46.5800       6
46.6000       8
46.6200      11
46.6400      11
46.6600       5
46.6800       9
46.7000       9
46.7200      14
46.7400       4
46.7600      10
46.7800       6
46.8000      18
46.8200       9
46.8400      13
46.8600      15
46.8800       8
46.9000       8
46.9200       9
46.9400      15
46.9600      13
46.9800       9
47.0000      10
47.0200       8
47.0400      13
47.0600      14
47.0800      24
47.1000      14
47.1200      12
47.1400      13
47.1600      21
47.1800      16
47.2000      16
47.2200      17
47.2400      10
47.2600      11
47.2800      21
47.3000      18
47.3200       8
47.3400      15
47.3600      12
47.3800       7
47.4000      11
47.4200       5
47.4400      13
47.4600      14
47.4800      12
47.5000       6
47.5200      10
47.5400       6
47.5600       5
47.5800       9
47.6000       6
47.6200      11
47.6400      14
47.6600      16
47.6800      10
47.7000       7
47.7200       7
47.7400       6
47.7600       4
47.7800      10
47.8000       8
47.8200       7
47.8400      11
47.8600      11
47.8800       4
47.9000       7
47.9200       8
47.9400       7
47.9600       5
47.9800       6
48.0000       8
48.0200       6
48.0400       7
48.0600       9
48.0800       5
48.1000       7
48.1200      11
48.1400       9
48.1600       9
48.1800       7
48.2000       5
48.2200       6
48.2400       6
48.2600      10
48.2800       6
48.3000       5
48.3200      14
48.3400       8
48.3600       5
48.3800       5
48.4000       8
48.4200       4
48.4400       6
48.4600       6
48.4800       9
48.5000       6
48.5200       7
48.5400       8
48.5600       8
48.5800       9
48.6000       6
48.6200      10
48.6400       9
48.6600      11
48.6800       6
48.7000       5
48.7200       6
48.7400       7
48.7600      13
48.7800      10
48.8000       8
48.8200       4
48.8400       9
48.8600       9
48.8800       8
48.9000       6
48.9200       6
48.9400       4
48.9600       5
48.9800      12
49.0000       9
49.0200       8
49.0400      12
49.0600       6
49.0800      11
49.1000       4
49.1200       7
49.1400       6
49.1600      12
49.1800       9
49.2000       5
49.2200       6
49.2400       8
49.2600       8
49.2800       9
49.3000      12
49.3200       8
49.3400      13
49.3600       9
49.3800       9
49.4000      10
49.4200      10
49.4400       9
49.4600       8
49.4800       6
49.5000      19
49.5200      14
49.5400      12
49.5600      15
49.5800      12
49.6000      15
49.6200      20
49.6400      14
49.6600      12
49.6800      21
49.7000      29
49.7200      17
49.7400      26
49.7600      32
49.7800      27
49.8000      25
49.8200      35
49.8400      42
49.8600      29
49.8800      33
49.9000      38
49.9200      29
49.9400      20
49.9600      28
49.9800      26
50.0000      26
50.0200      22
50.0400      25
50.0600      26
50.0800      13
50.1000      20
50.1200      17
50.1400      17
50.1600      10
50.1800      19
50.2000       8
50.2200      17
50.2400      13
50.2600      12
50.2800       5
50.3000      13
50.3200      13
50.3400       9
50.3600      21
50.3800      11
50.4000       7
50.4200      10
50.4400      10
50.4600      12
50.4800       7
50.5000       6
50.5200      11
50.5400       7
50.5600      17
50.5800       7
50.6000       7
50.6200       9
50.6400       8
50.6600       7
50.6800      12
50.7000       8
50.7200       7
50.7400       5
50.7600       8
50.7800       8
50.8000      14
50.8200       8
50.8400       6
50.8600       7
50.8800      10
50.9000       8
50.9200       5
50.9400       7
50.9600       8
50.9800      10
51.0000       7
51.0200       6
51.0400       8
51.0600       4
51.0800      11
51.1000       7
51.1200      12
51.1400       8
51.1600       8
51.1800       6
51.2000       9
51.2200      13
51.2400      10
51.2600       8
51.2800      10
51.3000       7
51.3200       5
51.3400       6
51.3600       5
51.3800       5
51.4000       7
51.4200       8
51.4400       6
51.4600       9
51.4800       8
51.5000       6
51.5200      10
51.5400       7
51.5600       7
51.5800       9
51.6000       7
51.6200       5
51.6400       9
51.6600       9
51.6800       9
51.7000       5
51.7200       6
51.7400       4
51.7600       6
51.7800       6
51.8000       8
51.8200       7
51.8400       5
51.8600      10
51.8800       8
51.9000       6
51.9200       6
51.9400      11
51.9600       3
51.9800       5
52.0000      11
52.0200       5
52.0400       9
52.0600       6
52.0800       9
52.1000      10
52.1200       7
52.1400       6
52.1600      10
52.1800       5
52.2000       7
52.2200       7
52.2400       8
52.2600       7
52.2800       9
52.3000       4
52.3200       5
52.3400       6
52.3600       6
52.3800       6
52.4000      10
52.4200       6
52.4400       5
52.4600       7
52.4800       7
52.5000       9
52.5200       9
52.5400       3
52.5600      12
52.5800      11
52.6000       4
52.6200      10
52.6400      11
52.6600      14
52.6800       6
52.7000      10
52.7200       8
52.7400       5
52.7600      11
52.7800       8
52.8000       7
52.8200      10
52.8400       5
52.8600      13
52.8800       4
52.9000      13
52.9200      11
52.9400       7
52.9600       6
52.9800       7
53.0000       8
53.0200       8
53.0400       6
53.0600       8
53.0800       7
53.1000       8
53.1200       8
53.1400       7
53.1600      10
53.1800       8
53.2000       9
53.2200       6
53.2400       9
53.2600       4
53.2800       9
53.3000       6
53.3200       4
53.3400       6
53.3600       5
53.3800       5
53.4000       4
53.4200      10
53.4400       6
53.4600       9
53.4800       9
53.5000       5
53.5200      11
53.5400       7
53.5600       5
53.5800       7
53.6000       9
53.6200       5
53.6400       2
53.6600       9
53.6800       7
53.7000       7
53.7200       4
53.7400       8
53.7600       9
53.7800       9
53.8000       3
53.8200      10
53.8400       6
53.8600       8
53.8800       9
53.9000       5
53.9200       4
53.9400       8
53.9600      10
53.9800       8
54.0000       7
54.0200       6
54.0400       6
54.0600       7
54.0800      15
54.1000       8
54.1200      10
54.1400       8
54.1600       4
54.1800       5
54.2000       7
54.2200       9
54.2400       4
54.2600       7
54.2800       7
54.3000      11
54.3200       8
54.3400      10
54.3600       9
54.3800       8
54.4000       8
54.4200       7
54.4400      11
54.4600       8
54.4800      11
54.5000       8
54.5200      16
54.5400       8
54.5600      12
54.5800      10
54.6000      16
54.6200       8
54.6400      10
54.6600       6
54.6800       9
54.7000       7
54.7200       5
54.7400      11
54.7600      10
54.7800       9
54.8000       7
54.8200       8
54.8400       7
54.8600       9
54.8800       9
54.9000       7
54.9200       7
54.9400       8
54.9600       8
54.9800      11
55.0000       5
55.0200       7
55.0400       9
55.0600       9
55.0800      10
55.1000       7
55.1200      14
55.1400      10
55.1600      10
55.1800       2
55.2000       7
55.2200       8
55.2400       6
55.2600       6
55.2800       8
55.3000       5
55.3200      10
55.3400      13
55.3600      12
55.3800       7
55.4000       9
55.4200       6
55.4400       9
55.4600      12
55.4800      13
55.5000      16
55.5200       9
55.5400      11
55.5600       9
55.5800       9
55.6000      16
55.6200      16
55.6400      10
55.6600      15
55.6800      15
55.7000      14
55.7200      21
55.7400      11
55.7600      15
55.7800      11
55.8000      12
55.8200      13
55.8400      19
55.8600      16
55.8800      21
55.9000      27
55.9200      15
55.9400      19
55.9600      24
55.9800      16
56.0000      22
56.0200      16
56.0400      21
56.0600      26
56.0800      39
56.1000      32
56.1200      30
56.1400      31
56.1600      28
56.1800      39
56.2000      36
56.2200      36
56.2400      44
56.2600      48
56.2800      29
56.3000      30
56.3200      28
56.3400      30
56.3600      35
56.3800      34
56.4000      32
56.4200      24
56.4400      30
56.4600      22
56.4800      17
56.5000      18
56.5200      25
56.5400      17
56.5600      16
56.5800      11
56.6000      17
56.6200      15
56.6400      19
56.6600      18
56.6800      19
56.7000      13
56.7200      22
56.7400      14
56.7600      19
56.7800      19
56.8000      23
56.8200      13
56.8400      13
56.8600      13
56.8800      21
56.9000      15
56.9200      14
56.9400       9
56.9600      15
56.9800      17
57.0000      11
57.0200       9
57.0400      13
57.0600      12
57.0800      14
57.1000      11
57.1200      13
57.1400       6
57.1600       7
57.1800       9
57.2000       7
57.2200       6
57.2400       8
57.2600      10
57.2800       6
57.3000       7
57.3200       9
57.3400       9
57.3600       7
57.3800      13
57.4000      12
57.4200       7
57.4400      12
57.4600       6
57.4800       7
57.5000       8
57.5200       9
57.5400       4
57.5600       8
57.5800       5
57.6000       8
57.6200      11
57.6400       5
57.6600      13
57.6800       7
57.7000       9
57.7200       6
57.7400       7
57.7600       8
57.7800       6
57.8000      12
57.8200       7
57.8400      12
57.8600       8
57.8800       7
57.9000      10
57.9200       5
57.9400       5
57.9600       8
57.9800       8
58.0000       6
58.0200       8
58.0400       8
58.0600       7
58.0800      11
58.1000       6
58.1200       8
58.1400       7
58.1600       5
58.1800       9
58.2000       7
58.2200       8
58.2400       8
58.2600      10
58.2800       5
58.3000       7
58.3200       6
58.3400       5
58.3600      10
58.3800      12
58.4000       6
58.4200      11
58.4400       7
58.4600       5
58.4800       8
58.5000       7
58.5200       6
58.5400      10
58.5600       4
58.5800      10
58.6000       7
58.6200       9
58.6400       8
58.6600       9
58.6800       8
58.7000       2
58.7200      12
58.7400       8
58.7600       4
58.7800       5
58.8000      15
58.8200       9
58.8400       9
58.8600      11
58.8800      11
58.9000       7
58.9200      12
58.9400      12
58.9600       7
58.9800      11
59.0000      11
59.0200      11
59.0400       9
59.0600      11
59.0800       6
59.1000      11
59.1200       9
59.1400      12
59.1600       6
59.1800      10
59.2000       5
59.2200       6
59.2400      12
59.2600       7
59.2800      13
59.3000       3
59.3200       3
59.3400      10
59.3600      10
59.3800       6
59.4000       6
59.4200      14
59.4400      13
59.4600      16
59.4800      10
59.5000      11
59.5200      12
59.5400      17
59.5600      15
59.5800      13
59.6000       9
59.6200      10
59.6400      20
59.6600      22
59.6800       5
59.7000      13
59.7200      19
59.7400      18
59.7600      14
59.7800      13
59.8000      23
59.8200      17
59.8400      22
59.8600      19
59.8800      24
59.9000      13
59.9200      29
59.9400      23
59.9600      27
59.9800      16
60.0000      38
60.0200      26
60.0400      30
60.0600      31
60.0800      37
60.1000      32
60.1200      54
60.1400      36
60.1600      45
60.1800      38
60.2000      35
60.2200      39
60.2400      31
60.2600      28
60.2800      38
60.3000      26
60.3200      27
60.3400      33
60.3600      27
60.3800      15
60.4000      14
60.4200      32
60.4400      22
60.4600      13
60.4800      11
60.5000      20
60.5200      12
60.5400      20
60.5600      14
60.5800      13
60.6000       7
60.6200       8
60.6400       5
60.6600       9
60.6800      10
60.7000      17
60.7200      13
60.7400       4
60.7600       8
60.7800      11
60.8000       7
60.8200       8
60.8400       9
60.8600      16
60.8800       3
60.9000       8
60.9200       3
60.9400      12
60.9600       5
60.9800      14
61.0000      13
61.0200      17
61.0400      10
61.0600      15
61.0800      15
61.1000       5
61.1200      14
61.1400       6
61.1600      12
61.1800      11
61.2000       7
61.2200       6
61.2400      14
61.2600       8
61.2800       3
61.3000       4
61.3200      14
61.3400       2
61.3600      12
61.3800      17
61.4000      14
61.4200       3
61.4400       8
61.4600       1
61.4800      10
61.5000       2
61.5200       6
61.5400       6
61.5600      12
61.5800      12
61.6000       6
61.6200       6
61.6400       3
61.6600      10
61.6800      14
61.7000      15
61.7200       3
61.7400       1
61.7600       9
61.7800       9
61.8000       6
61.8200       5
61.8400       7
61.8600       3
61.8800       8
61.9000       2
61.9200       9
61.9400       3
61.9600       9
61.9800       7
62.0000       5
62.0200      11
62.0400       5
62.0600       9
62.0800       5
62.1000       5
62.1200       6
62.1400       2
62.1600       8
62.1800       4
62.2000       8
62.2200       5
62.2400       7
62.2600       5
62.2800       6
62.3000       6
62.3200       9
62.3400       5
62.3600       4
62.3800       7
62.4000       5
62.4200       3
62.4400       8
62.4600       8
62.4800       4
62.5000       5
62.5200       3
62.5400       9
62.5600       3
62.5800       9
62.6000       8
62.6200       7
62.6400       7
62.6600       8
62.6800       3
62.7000       4
62.7200       8
62.7400       6
62.7600       4
62.7800       6
62.8000       3
62.8200       4
62.8400      12
62.8600       9
62.8800      10
62.9000       6
62.9200       7
62.9400       9
62.9600       4
62.9800       8
63.0000       8
63.0200      10
63.0400      10
63.0600       5
63.0800       4
63.1000       4
63.1200      10
63.1400       1
63.1600       9
63.1800       8
63.2000       5
63.2200       5
63.2400      13
63.2600       5
63.2800       5
63.3000       6
63.3200       7
63.3400       5
63.3600       5
63.3800       8
63.4000      10
63.4200       8
63.4400      11
63.4600       8
63.4800       5
63.5000       2
63.5200       9
63.5400       7
63.5600       5
63.5800       3
63.6000       5
63.6200      11
63.6400       4
63.6600       4
63.6800       9
63.7000       4
63.7200       7
63.7400       6
63.7600       8
63.7800       7
63.8000       8
63.8200       6
63.8400       4
63.8600       8
63.8800       9
63.9000       3
63.9200       4
63.9400       6
63.9600       7
63.9800       9
64.0000       7
64.0200       5
64.0400       5
64.0600      11
64.0800       8
64.1000      10
64.1200       6
64.1400       7
64.1600       9
64.1800       5
64.2000       5
64.2200       8
64.2400      11
64.2600       8
64.2800       9
64.3000       7
64.3200       8
64.3400      10
64.3600       9
64.3800       8
64.4000       5
64.4200       4
64.4400       7
64.4600       6
64.4800       8
64.5000       4
64.5200       8
64.5400       8
64.5600      10
64.5800       6
64.6000       3
64.6200       5
64.6400       7
64.6600       4
64.6800       6
64.7000       4
64.7200       4
64.7400       2
64.7600       7
64.7800       7
64.8000       3
64.8200       9
64.8400       7
64.8600       6
64.8800      11
64.9000       9
64.9200      10
64.9400       9
64.9600       7
64.9800       7
65.0000       5
65.0200       9
65.0400      10
65.0600       5
65.0800       7
65.1000      10
65.1200       5
65.1400       9
65.1600      12
65.1800       6
65.2000       9
65.2200      14
65.2400       9
65.2600      12
65.2800       8
65.3000      15
65.3200      11
65.3400       6
65.3600       8
65.3800      11
65.4000      11
65.4200      11
65.4400      12
65.4600      14
65.4800       9
65.5000       4
65.5200       8
65.5400       6
65.5600       8
65.5800       6
65.6000       8
65.6200       9
65.6400       5
65.6600       8
65.6800       7
65.7000       6
65.7200       7
65.7400       8
65.7600       9
65.7800       5
65.8000       8
65.8200       9
65.8400       8
65.8600       7
65.8800       5
65.9000       9
65.9200       4
65.9400      11
65.9600       9
65.9800       5
66.0000       5
66.0200       9
66.0400       9
66.0600       6
66.0800       7
66.1000       6
66.1200      12
66.1400       4
66.1600       5
66.1800      13
66.2000       7
66.2200       5
66.2400       9
66.2600       8
66.2800      10
66.3000       6
66.3200       6
66.3400       5
66.3600       7
66.3800       5
66.4000      11
66.4200      10
66.4400      11
66.4600       9
66.4800       7
66.5000      12
66.5200       8
66.5400       8
66.5600       9
66.5800       8
66.6000      10
66.6200       6
66.6400      10
66.6600       9
66.6800       6
66.7000       9
66.7200       7
66.7400      14
66.7600       7
66.7800       9
66.8000      13
66.8200       7
66.8400       9
66.8600       7
66.8800       8
66.9000      10
66.9200       8
66.9400       7
66.9600       6
66.9800       8
67.0000       8
67.0200       9
67.0400       5
67.0600       6
67.0800      10
67.1000       5
67.1200      13
67.1400       9
67.1600      11
67.1800      10
67.2000       7
67.2200       4
67.2400       6
67.2600       9
67.2800       9
67.3000      11
67.3200      11
67.3400       7
67.3600      11
67.3800       6
67.4000      14
67.4200       8
67.4400      10
67.4600       9
67.4800       8
67.5000       9
67.5200       8
67.5400      14
67.5600       9
67.5800       6
67.6000       8
67.6200       6
67.6400       5
67.6600       7
67.6800       7
67.7000       6
67.7200       6
67.7400       8
67.7600       3
67.7800       6
67.8000       5
67.8200       4
67.8400       6
67.8600       8
67.8800       5
67.9000       8
67.9200       6
67.9400       8
67.9600       6
67.9800       9
68.0000       7
68.0200       9
68.0400       7
68.0600       8
68.0800       6
68.1000      10
68.1200      23
68.1400       7
68.1600       9
68.1800      14
68.2000       5
68.2200      13
68.2400      10
68.2600       8
68.2800      10
68.3000       9
68.3200       9
68.3400      10
68.3600       7
68.3800      11
68.4000      11
68.4200      11
68.4400      10
68.4600       8
68.4800       9
68.5000       6
68.5200      10
68.5400      11
68.5600       9
68.5800       8
68.6000      14
68.6200       9
68.6400      13
68.6600      10
68.6800       6
68.7000      10
68.7200      13
68.7400       9
68.7600      12
68.7800      10
68.8000      14
68.8200      16
68.8400      13
68.8600       6
68.8800      13
68.9000      15
68.9200      17
68.9400      16
68.9600      17
68.9800      21
69.0000      20
69.0200      14
69.0400      16
69.0600      10
69.0800      17
69.1000      15
69.1200      13
69.1400      13
69.1600      11
69.1800      12
69.2000      17
69.2200      22
69.2400      18
69.2600      15
69.2800      17
69.3000      15
69.3200      21
69.3400      14
69.3600      16
69.3800      27
69.4000      24
69.4200      30
69.4400      34
69.4600      27
69.4800      35
69.5000      31
69.5200      29
69.5400      33
69.5600      35
69.5800      29
69.6000      31
69.6200      22
69.6400      27
69.6600      32
69.6800      26
69.7000      14
69.7200      22
69.7400      21
69.7600      18
69.7800      25
69.8000      26
69.8200      16
69.8400      20
69.8600      13
69.8800      16
69.9000      15
69.9200       9
69.9400      12
69.9600       9
69.9800       4
70.0000      10
70.0200      12
70.0400      11
70.0600      12
70.0800       9
70.1000      11
70.1200      12
70.1400      11
70.1600      14
70.1800      14
70.2000      10
70.2200       8
70.2400      10
70.2600       6
70.2800       9
70.3000       6
70.3200      10
70.3400       7
70.3600       6
70.3800       5
70.4000       6
70.4200       6
70.4400       6
70.4600       4
70.4800      10
70.5000       6
70.5200       9
70.5400      10
70.5600       7
70.5800       4
70.6000       9
70.6200      11
70.6400       7
70.6600       5
70.6800      10
70.7000       8
70.7200       8
70.7400       8
70.7600      10
70.7800       5
70.8000       8
70.8200       7
70.8400      10
70.8600       7
70.8800       5
70.9000       5
70.9200       9
70.9400       6
70.9600       9
70.9800       8
71.0000       6
71.0200       6
71.0400       3
71.0600       7
71.0800       5
71.1000       5
71.1200       7
71.1400       4
71.1600      11
71.1800       3
71.2000       5
71.2200       8
71.2400       9
71.2600       5
71.2800       6
71.3000       4
71.3200       9
71.3400       4
71.3600       6
71.3800      10
71.4000       7
71.4200       8
71.4400       8
71.4600       7
71.4800       3
71.5000       8
71.5200      13
71.5400      10
71.5600       5
71.5800       5
71.6000       7
71.6200       8
71.6400       7
71.6600       3
71.6800       5
71.7000       6
71.7200       8
71.7400       8
71.7600       9
71.7800       5
71.8000       4
71.8200       8
71.8400      10
71.8600       3
71.8800      12
71.9000       3
71.9200       5
71.9400       8
71.9600       7
71.9800       8
72.0000       3
72.0200       6
72.0400       5
72.0600       9
72.0800       6
72.1000       6
72.1200       6
72.1400       5
72.1600       7
72.1800      12
72.2000       4
72.2200       8
72.2400       6
72.2600       8
72.2800       4
72.3000       7
72.3200       9
72.3400       8
72.3600      11
72.3800       3
72.4000      13
72.4200      13
72.4400       8
72.4600       5
72.4800       6
72.5000      12
72.5200      10
72.5400       6
72.5600      10
72.5800       8
72.6000      11
72.6200       9
72.6400      11
72.6600       6
72.6800      10
72.7000      10
72.7200      10
72.7400      14
72.7600       9
72.7800       9
72.8000      12
72.8200      11
72.8400       8
72.8600      14
72.8800      11
72.9000      14
72.9200      16
72.9400      11
72.9600      14
72.9800      10
73.0000      15
73.0200       7
73.0400      14
73.0600      12
73.0800       7
73.1000       8
73.1200       7
73.1400      12
73.1600      12
73.1800      15
73.2000       9
73.2200      11
73.2400      16
73.2600      12
73.2800      11
73.3000       9
73.3200      10
73.3400      14
73.3600      12
73.3800      14
73.4000      13
73.4200      11
73.4400      13
73.4600      15
73.4800       7
73.5000       9
73.5200      15
73.5400      11
73.5600       9
73.5800       7
73.6000      12
73.6200       8
73.6400      11
73.6600       9
73.6800       7
73.7000       3
73.7200      10
73.7400       6
73.7600       9
73.7800       6
73.8000       7
73.8200       6
73.8400       5
73.8600       3
73.8800       9
73.9000       9
73.9200      10
73.9400       7
73.9600       6
73.9800       8
74.0000       3
74.0200       5
74.0400      10
74.0600       8
74.0800       7
74.1000      11
74.1200      11
74.1400      10
74.1600       6
74.1800       4
74.2000       4
74.2200       5
74.2400       8
74.2600       7
74.2800       9
74.3000       6
74.3200       9
74.3400       8
74.3600       7
74.3800       4
74.4000       9
74.4200       9
74.4400       7
74.4600       8
74.4800       9
74.5000      11
74.5200       6
74.5400       7
74.5600       7
74.5800       6
74.6000       8
74.6200       7
74.6400       9
74.6600       6
74.6800       8
74.7000      10
74.7200       8
74.7400       7
74.7600       5
74.7800       4
74.8000       4
74.8200       6
74.8400       8
74.8600       5
74.8800       5
74.9000       6
74.9200       9
74.9400       3
74.9600       8
74.9800       9
75.0000       8
75.0200       7
75.0400       7
75.0600       3
75.0800       6
75.1000       2
75.1200       5
75.1400      11
75.1600      11
75.1800       8
75.2000       5
75.2200       5
75.2400       7
75.2600       6
75.2800       1
75.3000       7
75.3200       8
75.3400       8
75.3600       9
75.3800       8
75.4000       4
75.4200       6
75.4400      10
75.4600       9
75.4800       5
75.5000       9
75.5200       5
75.5400       5
75.5600       3
75.5800       4
75.6000       6
75.6200       5
75.6400       7
75.6600       4
75.6800       8
75.7000       7
75.7200       8
75.7400       6
75.7600       2
75.7800       8
75.8000       8
75.8200       4
75.8400       6
75.8600       3
75.8800       6
75.9000       9
75.9200       6
75.9400       6
75.9600       8
75.9800       7
76.0000       3
76.0200       8
76.0400       5
76.0600       4
76.0800       5
76.1000       7
76.1200       9
76.1400       4
76.1600       6
76.1800       6
76.2000       4
76.2200       7
76.2400       5
76.2600       7
76.2800       9
76.3000       6
76.3200       2
76.3400       3
76.3600       7
76.3800       4
76.4000       6
76.4200       5
76.4400       7
76.4600       6
76.4800      10
76.5000       4
76.5200      12
76.5400      11
76.5600       6
76.5800       5
76.6000      10
76.6200       9
76.6400       6
76.6600       4
76.6800       8
76.7000       7
76.7200       5
76.7400      11
76.7600       3
76.7800       3
76.8000       9
76.8200       4
76.8400       9
76.8600       4
76.8800      11
76.9000       5
76.9200       8
76.9400       6
76.9600       6
76.9800       4
77.0000       9
77.0200       6
77.0400       7
77.0600       4
77.0800       5
77.1000      11
77.1200      14
77.1400       8
77.1600       7
77.1800       8
77.2000      10
77.2200       9
77.2400       5
77.2600       6
77.2800       4
77.3000       6
77.3200       3
77.3400       8
77.3600       6
77.3800       5
77.4000       2
77.4200      11
77.4400       8
77.4600       8
77.4800       3
77.5000      11
77.5200      12
77.5400       6
77.5600       7
77.5800       5
77.6000       8
77.6200       8
77.6400       4
77.6600       7
77.6800       9
77.7000       9
77.7200       8
77.7400       7
77.7600       5
77.7800       2
77.8000       2
77.8200       7
77.8400       7
77.8600       5
77.8800       7
77.9000       8
77.9200       9
77.9400      11
77.9600       8
77.9800       2
78.0000       9
78.0200       7
78.0400       3
78.0600       7
78.0800       8
78.1000       6
78.1200       6
78.1400       7
78.1600      10
78.1800      15
78.2000      12
78.2200      11
78.2400       5
78.2600       8
78.2800      13
78.3000       6
78.3200       1
78.3400      12
78.3600       5
78.3800       7
78.4000       6
78.4200       3
78.4400       7
78.4600       5
78.4800       5
78.5000       9
78.5200       7
78.5400      12
78.5600      10
78.5800       6
78.6000       9
78.6200       9
78.6400       5
78.6600       7
78.6800       7
78.7000       7
78.7200      10
78.7400       4
78.7600      18
78.7800       5
78.8000      11
78.8200       7
78.8400       6
78.8600       7
78.8800       5
78.9000       9
78.9200       8
78.9400       8
78.9600       8
78.9800       6
79.0000       8
79.0200       4
79.0400       9
79.0600       6
79.0800       4
79.1000      10
79.1200       6
79.1400       8
79.1600       5
79.1800       3
79.2000       8
79.2200       6
79.2400       9
79.2600       4
79.2800       3
79.3000       4
79.3200       5
79.3400       9
79.3600       8
79.3800       9
79.4000       8
79.4200       8
79.4400       4
79.4600       5
79.4800       6
79.5000       4
79.5200       2
79.5400       5
79.5600       5
79.5800      11
79.6000       5
79.6200       4
79.6400       6
79.6600       4
79.6800       8
79.7000       6
79.7200       4
79.7400       3
79.7600       5
79.7800       7
79.8000       4
79.8200       9
79.8400       5
79.8600       4
79.8800      11
79.9000       8
79.9200       5
79.9400       7
79.9600       6
79.9800       3
80.0000       5
